901
4001.24268007278
648.246020793915
1
129
8
11.1978740833273
11.1579650894354
10.8841895621087
10.4446826534069
10.86476080166
10.5177340906637
10.5969140136124
10.771436554206
10.6408497302156
10.2290579807801
10.3672642276411
10.3339975815212
10.4123873195304
10.1408173339641
10.2139742728583
9.80837375829819
10.3459220593875
9.87823454910947
9.51746224602351
9.47853316296195
9.83715794543092
9.50713029715315
9.48167516884859
9.13964633118488
9.33977274209918
9.96616517150636
9.95215932749442
9.39619572151953
9.73682259127655
9.6820608155265
9.69358553290527
9.14616065888693
9.13953379822443
8.94254664316993
9.29001951212544
9.80435576105329
9.37109323395666
8.6313550315466
8.77699885931869
8.78313623552678
8.63155393202827
8.03889003812408
8.91862797458249
9.28731800038087
9.13708070561319
9.01372550058471
8.72373227058756
8.06074441547253
8.73270735449765
9.01455220709207
8.46711718248058
8.04360702471347
8.47272660274592
8.78710117153746
8.65174410778481
7.1637991269206
7.01324159875893
7.67634915458238
7.8660100090985
7.57394208221592
7.48315937202194
6.92807725834456
7.56588830892352
7.85902723722488
7.05879488678173
6.52621639304985
6.96628000769794
6.99203689577733
6.51788223878056
5.78261057791841
5.878034200894
6.48954052775463
6.43611130810363
4.86430358705286
4.82735985948821
5.00742177483098
5.16889424076803
4.70812119372113
4.31514338316141
3.74395301315082
3.42609771283627
3.08441007573796
3.57158874553365
3.76574674578007
3.79240398431612
2.85137791759959
2.78204560558975
3.41793389830217
3.9023573768339
3.03224414994348
3.29591835875105
3.09933287586688
2.49077358589663
2.35108412848721
3.52318008324718
3.30015702322802
2.06062819919553
2.08599658165219
2.64613125352
2.40127303573762
2.731875546939
2.28544786209531
2.1649912178269
2.10490546308312
2.04396256713461
2.06426154747573
2.67040343084571
1.95671164623864
1.8622740718735
2.22021661003498
2.31637810553643
2.10786356074801
2.29690369321615
2.32157202254493
2.37789578114432
1.74940542197817
1.53979946553747
1.09777408267278
2.15828880008941
2.24537927552973
2.4520944719923
2.40259753179655
1.77184825861783
1.25484155848315
2.50169671155994
2.61802382306562
2.50060373837639
1.89212293447252
0.684913824710562
0.399738131209533
1.67850124775085
1.62747099718422
2.17019591384069
1.98177556382038
1.68187498834371
1.75084780758798
2.04341630226825
1.49137539887597
1.79559870280846
2.40707276410778
2.02872963926835
1.4347479539194
1.94763327048497
1.80358933944749
2.01183138497018
1.77001571746981
1.5359844928264
1.56881371473042
1.9984230526068
1.16128054146137
1.74332200572598
2.37010643310921
2.14204261891047
1.44189174306571
1.52589176135954
1.40913619043219
1.99173746964223
2.13894390365807
2.14356905613861
1.67453824533205
1.69275179038109
1.46590627534924
2.06355508585779
2.55914927484262
2.70004120327472
2.58853677344152
2.23946574139728
1.84739543171423
2.17561338831689
1.85979531493445
2.10514858126993
2.09025839941357
2.13293341867487
1.8515842596958
2.12559305725464
1.7883643621287
1.8470315783913
2.14313708524167
2.63977908227921
1.93800075183055
2.0202319861424
2.51201003176275
2.35516406138334
1.89778355705933
2.29283275674119
2.32640910166427
2.12667631946441
1.89678120552784
2.63552658739171
2.72679437053052
2.41444173463712
2.07066189588331
1.95938462187028
1.85473146070685
2.31790284620911
2.29476250864703
2.30702098663467
1.96985755247403
2.13298884264779
1.70476053172769
1.63785678713752
1.92612708863955
1.90201991216872
1.39800222701934
2.23688356922064
2.54794575723465
2.16913179586855
1.9283510113596
2.5728855342946
2.4337749359118
2.36414973414825
2.28829513903444
2.38726581980621
2.18677742865594
2.08815346674739
1.97752857470218
2.31762643919407
2.04423745212682
1.96527590594485
2.00688384913773
2.11454329838761
2.21616058079802
2.5914825835444
2.35775059034686
2.44565782267537
2.17264591824267
2.07421058072327
2.1010108050937
2.07626687613561
2.16632754635594
2.39433323651065
2.07561425867376
2.44935959878902
2.44215655562724
2.41749904502221
2.3829450063094
2.34142386344709
2.26991542014875
2.44506658320355
2.13187509477323
2.12155737396105
2.23695722793938
2.4821965774909
2.41520050908278
2.49206306224367
2.46908317152023
2.6255329809431
2.40046351239795
2.39056686442083
2.36363547935029
2.27091270467727
2.14115215533346
2.47650219793505
2.44817319540688
2.40625185397791
2.36984779869727
2.5483828742387
2.46469185258611
2.41258197374824
2.08795369747368
2.3841693084958
2.64886581548789
2.35542593956345
2.12782291593221
2.29504886313178
2.11263181497587
2.34169980565826
2.68579468340484
2.62581224504194
2.36146282423296
2.59339277448849
2.37733468911749
2.54262314370114
2.9300007439068
2.76180330172143
2.32370804916896
2.63639040985811
2.55893311204398
2.79832589597173
3.05010686904988
3.00210988945067
2.77871198136646
2.79982678233981
2.73501010155574
2.79922769958899
2.64223580307619
2.86867247568979
2.69758650038193
2.70331412254313
2.76151085725227
3.18694720317907
3.33514634024153
3.12917062322616
2.96713083980224
2.91212663492323
2.51137967711589
2.6415587920299
3.08505422644045
3.18568358416299
2.85637426315849
3.04831238624672
3.0769067428497
2.81348861810362
2.70273289497826
2.98756460528311
2.72957250075991
2.83682316176295
3.05909758166337
3.0976478859322
3.05403029386271
3.0461321863802
2.71479650782287
2.96194881454981
3.01764292843454
3.01494298155018
2.9459034662818
2.97223561209163
3.09181027588891
3.22007411166831
2.99901625122458
2.91574225347936
2.98359037143557
3.14545540390485
2.92773615377829
3.10201821828608
3.37007008123698
3.39325442053751
3.18568777940756
3.25532129344886
3.0192737210422
3.01897581769132
3.13912408416381
3.43124866125102
3.38645623777732
3.41357455850688
3.34999713913348
3.34942211241951
3.25895410182999
3.36808477489328
3.45943753246784
3.65285000134089
3.56358428729271
3.52896658135525
3.38303846581621
3.37855246231896
3.37462470126166
3.45183786857046
3.56575731201145
3.78617650407418
3.78049620565766
3.80362101297434
3.49138363537594
3.45269401921244
3.67421492876991
3.84878567238626
3.68121939955826
3.78078793457963
3.63825887781622
3.60636052775573
3.53039164843844
3.63920154382451
3.79060902356861
3.89849461694496
3.67857398378634
3.86519323146603
4.02567754590626
3.90282818820165
3.74333064012887
4.03125681738385
3.97877407136526
3.79756308689506
3.83445555767763
3.97957665870195
3.83519690674551
3.90587976141426
3.96047574580343
4.00607774164887
3.92483427390396
4.00979219069557
3.87139719094107
3.84782881373833
3.8857801443278
4.01025237328261
3.89499095152286
3.84058310457155
3.88473458515286
3.97732830316313
3.79344644265103
3.80031216210297
3.87110314825106
3.87644352601254
3.79045468086777
3.92122062321271
3.80523511996612
3.76860651554533
3.72453072300651
3.89365688249234
4.03348382833816
3.90736307504243
3.76360784120304
3.93301945807472
3.88198414464533
3.81169754774472
3.71073498883079
3.81537121549097
3.88308049747419
3.78518287037865
3.64572329634672
3.79873255807514
3.66285835847551
3.68320993456129
3.71880870869244
3.73696851687733
3.62415471187786
3.75810629250555
3.79560126703883
3.88147601870487
3.81403019478415
3.63247922920133
3.62107501755603
3.76257759086456
3.61771790974019
3.63908524087866
3.67208403503907
3.64829810864875
3.57086529960381
3.6116751854378
3.54011911649757
3.60389742273545
3.53797988059757
3.55354851178742
3.58367835374646
3.61447858080712
3.59029750177721
3.69226546349668
3.62280097920187
3.60361419499992
3.62352400538262
3.83154256629448
3.79688158465685
3.82968057307613
3.37399195235887
3.38124079365312
3.25317042095656
3.03209301085952
3.06373392297818
3.23414697713252
3.29097491634498
3.46641079921986
3.15343807396
3.17460687515948
3.10261213707585
3.0960300362029
3.22108146650192
3.36232110916974
3.10424375028419
3.0543034967234
3.08972334411561
3.305807438325
3.32295846667552
3.25017476919027
3.04618743473285
3.14859907454161
3.34800366513328
3.40212016558057
3.21523340828055
3.25200608974634
3.22241893176821
3.24999249213146
3.29495794649309
3.36620509859998
3.32074489563752
3.37452442966602
3.29022442855581
3.28732330921858
3.21457311964582
3.13573109901022
3.11892262742707
3.28193895598221
3.35693644959365
3.41839361544154
3.20424053765621
3.12669193418697
3.20048865445002
3.17265945615658
3.12087869666935
3.29113327614365
3.24612463490396
3.22780210326933
3.14304849586957
3.10182800047433
3.16137005057465
3.23446594486718
3.27637480264689
3.31830467360389
3.09539024854609
3.03606200024531
3.00626441491658
3.15215124034102
3.21111247742323
3.18969754577498
3.06151584646678
3.01190981114358
2.99557066802759
3.1360307739003
3.04465388243587
2.96342234829095
3.06685753758521
3.17881602600428
3.06746518448651
2.97838456045977
2.87426772952114
2.97944768600195
3.03069279292897
3.11173634403361
3.00645448265342
2.99896417740533
2.94209197954535
2.98116392488589
2.97722366294476
3.04504505996729
2.86409521708881
2.80240680710172
2.92813327085664
3.01872746908577
2.86118855405261
2.88034947189956
2.87674603876005
2.77232850100213
2.65467663948961
2.7869013710084
2.93023695387983
2.95995681291135
2.73471682770586
2.80255732548766
2.80717775352573
2.84299727764229
2.90505125387992
2.76823000090496
2.58414627559097
2.70821426847271
2.77310761499849
2.85591465045171
2.79358388514952
2.69803614067067
2.62565260438083
2.79555677473556
2.75589428969425
2.74945388330276
2.76812084000329
2.8033269630223
2.74817330755502
2.69177496350354
2.551560968539
2.62158848276442
2.78089760663958
2.77433707494646
2.51532139282464
2.47064818979638
2.5571363387083
2.66796188586259
2.53877060142318
2.53660043831163
2.53373375299538
2.53675396105619
2.44354089029556
2.54946643970113
2.50948602924411
2.37266187322743
2.33486660591469
2.56181965670319
2.59255921872946
2.58987378730478
2.56257294400269
2.48798514416195
2.38452539653947
2.42321641847499
2.55824420238697
2.64677214132076
2.50802984127719
2.40248880618295
2.39167028681142
2.43663087484378
2.4312782940977
2.4155173668043
2.34138894851127
2.42120994679933
2.39486395652106
2.52849818699447
2.54794139854852
2.55771997458844
2.56643167156527
2.5479486432045
2.44999280025099
2.47474257242724
2.58730494437432
2.62921617916464
2.45835328268312
2.64559392052871
2.78616629745244
2.76674610484263
2.72929819410342
2.69235225377646
2.54392426042593
2.60901989111148
2.82601571416362
3.09487058848846
2.95600040996893
2.91217641261727
3.15295844546122
3.09721344067569
3.03101745048966
3.07930242991704
3.1224081930877
3.5246344800104
3.44197753021248
3.61678043643446
4.12658966978912
4.3871698032078
3.90317786030929
4.05522642491115
4.1682610553021
4.47325340755518
4.61925568635276
4.9277921331687
5.17458747042641
4.98937642374461
4.5051488387804
4.46447369636542
4.6030262736985
5.2852142585584
5.12333623923612
5.01566596968902
4.90010516607025
5.03033458039613
5.29955944912509
4.55614323060616
4.301430831265
4.26987845836374
3.82254168286295
3.61026846404709
3.3859634972411
3.40289843010894
3.25455609920032
3.18137623425565
3.31269086203211
3.37732040879495
3.08204575363858
3.02534937957567
3.0921318857238
3.21733335611729
3.17382203811082
2.96837458923634
3.04375832060109
3.29143496817695
3.47017020527668
3.61308555369897
3.20395544288847
3.34242925561282
3.51093785742205
3.90071761141171
3.66673606038338
3.41033603465295
3.43738836557456
3.44060160763437
3.54617530563457
3.56854224084487
3.25612876669023
3.12914289443801
3.2822139897274
3.23791537662036
2.98574456794185
3.25212936106305
3.02840908906938
2.86130987512968
2.68026122467738
2.69062287283042
2.70585163452988
2.73385878705058
2.79361679677247
2.68332550837166
2.39234580268291
2.3360967996338
2.53556684028516
2.30112102923731
2.29595559038775
2.41780988843654
2.24832600047156
2.23239784896973
2.12548196671246
2.04093825723785
2.10242423355733
2.15329926006817
2.15663414467004
2.29647693028676
2.23477352220904
2.22371160441505
2.25524558116043
2.32535107432331
2.16290366045032
2.00160115895116
1.73229930134626
1.64359718102438
1.61244111759892
1.62298370057868
1.67532631801952
1.54748589856103
1.50932459764663
1.70679023795777
1.5913188925367
1.63035671009052
1.64174685396436
1.60266771318908
1.585896951814
1.64117016715321
1.53880554241206
1.58169701855807
1.94150691699537
2.44392544223665
2.81142696953599
3.10552128223469
3.24498600743674
3.20189898697206
3.07646289439692
3.2585522135498
3.63136150314489
4.00610762356216
4.06924427569343
4.03449443266735
3.99700844197593
4.11623350737478
4.31737050239988
4.33210016935028
4.22544920804366
4.23960087850881
4.13069295810293
4.02576267810982
4.00596910755861
3.91139989173094
3.61234677617442
3.47820014786838
3.34256113579294
3.28667651757093
3.28903689761837
3.26565284408532
3.18855125608427
3.24228551290028
3.24122860782878
3.10699758649299
3.21175362762279
3.44457375007593
3.45489751803246
3.54954756014261
3.71018102624201
3.91643775966409
3.99296374255615
4.02484099423273
4.36134921495171
4.81858042691305
5.26348684386679
5.66626003462584
6.13887977244202
6.88211358971087
7.49110160117525
8.14969686987234
8.73583067737118
9.17194176633526
9.70913692719189
10.2882892177567
10.9010990078593
11.5234048957959
11.8159747132726
11.8736875012654
11.8753004460442
11.8022880683412
11.529102851785
11.1864696354872
10.989779509614
10.9045737033944
10.7276966152586
10.5080447181367
10.2178385725193
9.91978806655979
9.64973522390461
9.61308070809069
9.77263524789479
9.96139024509484
10.1044339778799
10.1639721539192
10.0595747460686
9.94059293149694
9.78125763079557
9.76968536440161
9.85350160576261
9.83116676764053
9.74840767387089
9.82849267474595
9.94501860994154
9.86568043507867
9.88660323448453
10.0361227348285
10.2403068930329
10.49702434146
10.5597204154025
10.3273499632671
9.99624526289626
9.81648392144693
9.62697906490971
9.23169566602158
8.90838270347375
8.77296945357814
8.57338202170489
8.44616360939223
8.38668015211392
8.21827246538918
7.87649900850332
7.5873858177844
7.39172993641824
7.01941306966728
6.73328289764365
6.66060364448983
6.49383567453247
6.35686346256172
6.25186048049003
6.09937451540174
5.94542610329043
5.81379278105619
5.84793816579729
5.89164615408703
5.81459149969261
5.77733519275723
5.65509402039957
5.38316501764367
5.013971873661
4.70474996124257
4.73398528965787
4.82152873802921
4.9062765876522
4.93788173437394
4.97686063735861
4.81774412291252
4.68684957197933
4.50599910090816
4.40062569196848
4.4849766635004
4.51470711671119
4.64052181995333
4.71905996855827
4.56885860275712
4.57412813812447
4.14256006324639
3.96927068019221
4.2302590551187
4.48620901387526
4.15049050146861
3.72432354395893
3.97449732210891
4.13071027786715
4.04838223183621
3.89377511467083
3.61846198581995
3.56641976142441
3.54212526757644
3.91359761138682
3.93867724798018
3.48478195572985
2.96214474474569
3.42888632197771
4.07973842657691
3.55431904734827
2.94391739300677
3.63593555236786
3.52595157684448
3.0758412937269
2.57494525424472
2.36966069297539
2.32028866944751
2.91736227114482
2.64998508184781
2.92065954086338
3.08950233944042
3.36763673468981
2.71261602125205
3.46027820227164
4.48782304576597
4.09580094983893
1.8544920375813
3.48634158698326
4.88962073164631
3.49456237692766
3.03588865077275
3.82419172803229
1.72425417220677
3.72360877333536
5.26258071038705
3.31887215779725
2.97251955742709
4.53862965112902
4.6048692082252
6.34459933909091
8.22235544452649
